,Measured Depth m,Weight on Bit kkgf,Average Standpipe Pressure kPa,Average Surface Torque kN.m,Rate of Penetration m/h,Average Rotary Speed rpm,Mud Flow In L/min,Mud Density In g/cm3,Diameter mm,Average Hookload kkgf,Hole Depth (TVD) m,USROP Gamma gAPI
0,2828.239,14.8470684622437,19732.0007315855,15.6000006389626,4.6899999672,99.18,2774.26001076563,1.3800000238525802,215.9,136.947890313678,2530.2615384,19.07
1,2828.3920000000003,14.8470684622437,19732.0007315855,15.6000006389626,4.6899999672,99.18,2774.26001076563,1.3800000238525802,215.9,136.947890313678,2530.2615384,19.07
2,2828.5440000000003,14.8470684622437,19732.0007315855,15.6000006389626,4.6899999672,99.18,2774.26001076563,1.3800000238525802,215.9,136.947890313678,2530.2615384,19.07
3,2828.696,14.8470684622437,19732.0007315855,15.6000006389626,4.6899999672,99.18,2774.26001076563,1.3800000238525802,215.9,136.947890313678,2530.2615384,19.07
4,2828.849,14.8470684622437,19732.0007315855,15.6000006389626,4.6899999672,99.18,2774.26001076563,1.3800000238525802,215.9,136.947890313678,2530.2615384,19.07
5,2829.0009999999997,14.8470684622437,19732.0007315855,15.6000006389626,4.6899999672,99.18,2774.26001076563,1.3800000238525802,215.9,136.947890313678,2530.2615384,19.07
6,2829.1540000000005,14.8470684622437,19732.0007315855,15.6000006389626,4.6899999672,99.18,2774.26001076563,1.3800000238525802,215.9,136.947890313678,2530.2615384,19.07
7,2829.3059999999996,14.8470684622437,19732.0007315855,15.6000006389626,4.6899999672,99.18,2774.26001076563,1.3800000238525802,215.9,136.947890313678,2530.2615384,19.07
8,2829.458,14.8470684622437,19732.0007315855,15.6000006389626,4.6899999672,99.18,2774.26001076563,1.3800000238525802,215.9,136.947890313678,2530.2615384,19.07
9,2829.611,14.8470684622437,19732.0007315855,15.6000006389626,4.6899999672,99.18,2774.26001076563,1.3800000238525802,215.9,136.947890313678,2530.2615384,19.07
10,2829.763,14.8470684622437,19732.0007315855,15.6000006389626,4.6899999672,99.18,2774.26001076563,1.3800000238525802,215.9,136.947890313678,2530.3926024,19.07
11,2829.9159999999997,14.8470684622437,19732.0007315855,15.6000006389626,4.6899999672,99.18,2774.26001076563,1.3800000238525802,215.9,136.947890313678,2530.5233616,19.07
12,2830.028,14.8470684622437,19732.0007315855,15.6000006389626,4.6899999672,99.18,2774.26001076563,1.3800000238525802,215.9,136.947890313678,2530.6541208,19.07
13,2830.1809999999996,14.8470684622437,19732.0007315855,15.6000006389626,4.6899999672,99.18,2774.26001076563,1.3800000238525802,215.9,136.947890313678,2530.78488,19.07
14,2830.22,14.8470684622437,19732.0007315855,15.6000006389626,4.6899999672,99.18,2774.26001076563,1.3800000238525802,215.9,136.947890313678,2530.78488,19.07
15,2830.333,14.8470684622437,19732.0007315855,15.6000006389626,4.6899999672,99.18,2774.26001076563,1.3800000238525802,215.9,136.947890313678,2530.9156391999995,19.07
16,2830.373,14.8470684622437,19732.0007315855,15.6000006389626,4.6899999672,99.18,2774.26001076563,1.3800000238525802,215.9,136.947890313678,2530.9156391999995,19.07
17,2830.486,14.8470684622437,19732.0007315855,15.6000006389626,4.6899999672,99.18,2774.26001076563,1.3800000238525802,215.9,136.947890313678,2531.0463984000003,19.07
18,2830.525,14.8470684622437,19732.0007315855,15.6000006389626,4.6899999672,99.18,2774.26001076563,1.3800000238525802,215.9,136.947890313678,2531.0463984000003,19.07
19,2830.638,14.8470684622437,19732.0007315855,15.6000006389626,4.6899999672,99.18,2774.26001076563,1.3800000238525802,215.9,136.947890313678,2531.1771575999996,19.07
20,2830.83,14.8470684622437,19732.0007315855,15.6000006389626,4.6899999672,99.18,2774.26001076563,1.3800000238525802,215.9,136.947890313678,2531.3079168,19.07
21,2830.9429999999998,14.8470684622437,19732.0007315855,15.6000006389626,4.6899999672,99.18,2774.26001076563,1.3800000238525802,215.9,136.947890313678,2531.438676,19.07
22,2830.982,14.8470684622437,19732.0007315855,15.6000006389626,4.6899999672,99.18,2774.26001076563,1.3800000238525802,215.9,136.947890313678,2531.438676,19.07
23,2831.095,14.8470684622437,19732.0007315855,15.6000006389626,4.6899999672,99.18,2774.26001076563,1.3800000238525802,215.9,136.947890313678,2531.5694351999996,19.07
24,2831.135,14.8470684622437,19732.0007315855,15.6000006389626,4.6899999672,99.18,2774.26001076563,1.3800000238525802,215.9,136.947890313678,2531.5694351999996,19.07
25,2831.248,14.8470684622437,19732.0007315855,15.6000006389626,4.6899999672,99.18,2774.26001076563,1.3800000238525802,215.9,136.947890313678,2531.7001944000003,19.07
26,2831.2870000000003,14.8470684622437,19732.0007315855,15.6000006389626,4.6899999672,99.18,2774.26001076563,1.3800000238525802,215.9,136.947890313678,2531.7001944000003,19.07
27,2831.4,14.8470684622437,19732.0007315855,15.6000006389626,4.6899999672,99.18,2774.26001076563,1.3800000238525802,215.9,136.947890313678,2531.8309535999997,19.07
28,2831.44,14.8470684622437,19732.0007315855,15.6000006389626,4.6899999672,99.18,2774.26001076563,1.3800000238525802,215.9,136.947890313678,2531.8309535999997,19.07
29,2831.552,14.8470684622437,19732.0007315855,15.6000006389626,4.6899999672,99.18,2774.26001076563,1.3800000238525802,215.9,136.947890313678,2531.9617128000004,19.07
30,2831.592,14.8470684622437,19732.0007315855,15.6000006389626,4.6899999672,99.18,2774.26001076563,1.3800000238525802,215.9,136.947890313678,2531.9617128000004,19.07
31,2831.705,14.8470684622437,19732.0007315855,15.6000006389626,4.6899999672,99.18,2774.26001076563,1.3800000238525802,215.9,136.947890313678,2532.0927768,19.07
32,2831.744,14.8470684622437,19732.0007315855,15.6000006389626,4.6899999672,99.18,2774.26001076563,1.3800000238525802,215.9,136.947890313678,2532.0927768,19.07
33,2831.857,14.8470684622437,19732.0007315855,15.6000006389626,4.6899999672,99.18,2774.26001076563,1.3800000238525802,215.9,136.947890313678,2532.223536,19.07
34,2832.01,14.8470684622437,19732.0007315855,15.6000006389626,4.6899999672,99.18,2774.26001076563,1.3800000238525802,215.9,136.947890313678,2532.3542952,19.07
35,2832.0490000000004,14.8470684622437,19732.0007315855,15.6000006389626,4.6899999672,99.18,2774.26001076563,1.3800000238525802,215.9,136.947890313678,2532.3542952,19.07
36,2832.1620000000003,14.8470684622437,19732.0007315855,15.6000006389626,4.6899999672,99.18,2774.26001076563,1.3800000238525802,215.9,136.947890313678,2532.4850544,19.07
37,2832.202,14.8470684622437,19732.0007315855,15.6000006389626,4.6899999672,99.18,2774.26001076563,1.3800000238525802,215.9,136.947890313678,2532.4850544,19.07
38,2832.3140000000003,14.8470684622437,19732.0007315855,15.6000006389626,4.6899999672,99.18,2774.26001076563,1.3800000238525802,215.9,136.947890313678,2532.6158136,19.07
39,2832.3540000000003,14.8470684622437,19732.0007315855,15.6000006389626,4.6899999672,99.18,2774.26001076563,1.3800000238525802,215.9,136.947890313678,2532.6158136,19.07
40,2832.467,14.8470684622437,19732.0007315855,15.6000006389626,4.6899999672,99.18,2774.26001076563,1.3800000238525802,215.9,136.947890313678,2532.7465728,19.07
41,2832.506,14.8470684622437,19732.0007315855,15.6000006389626,4.6899999672,99.18,2774.26001076563,1.3800000238525802,215.9,136.947890313678,2532.7465728,19.07
42,2832.619,14.8470684622437,19732.0007315855,15.6000006389626,4.6899999672,99.18,2774.26001076563,1.3800000238525802,215.9,136.947890313678,2532.877332,19.07
43,2832.659,14.8470684622437,19732.0007315855,15.6000006389626,4.6899999672,99.18,2774.26001076563,1.3800000238525802,215.9,136.947890313678,2532.877332,19.07
44,2832.772,14.8470684622437,19732.0007315855,15.6000006389626,4.6899999672,99.18,2774.26001076563,1.3800000238525802,215.9,136.947890313678,2533.0080912,19.07
45,2832.8109999999997,14.8470684622437,19732.0007315855,15.6000006389626,4.6899999672,99.18,2774.26001076563,1.3800000238525802,215.9,136.947890313678,2533.0080912,19.07
46,2832.9640000000004,14.8470684622437,19732.0007315855,15.6000006389626,4.6899999672,99.18,2774.26001076563,1.3800000238525802,215.9,136.947890313678,2533.1388504,19.07
47,2833.116,14.8470684622437,19732.0007315855,15.6000006389626,4.6899999672,99.18,2774.26001076563,1.3800000238525802,215.9,136.947890313678,2533.2696096,19.07
48,2833.2290000000003,14.8470684622437,19732.0007315855,15.6000006389626,4.6899999672,99.18,2774.26001076563,1.3800000238525802,215.9,136.947890313678,2533.4003688000003,19.07
49,2833.268,14.8470684622437,19732.0007315855,15.6000006389626,4.6899999672,99.18,2774.26001076563,1.3800000238525802,215.9,136.947890313678,2533.4003688000003,19.07
50,2833.381,14.8470684622437,19732.0007315855,15.6000006389626,4.6899999672,99.18,2774.26001076563,1.3800000238525802,215.9,136.947890313678,2533.5314328,19.07
51,2833.534,14.8470684622437,19732.0007315855,15.6000006389626,4.6899999672,99.18,2774.26001076563,1.3800000238525802,215.9,136.947890313678,2533.6621920000002,19.07
52,2833.573,14.8470684622437,19732.0007315855,15.6000006389626,4.6899999672,99.18,2774.26001076563,1.3800000238525802,215.9,136.947890313678,2533.6621920000002,19.07
53,2833.6859999999997,14.8470684622437,19732.0007315855,15.6000006389626,4.6899999672,99.18,2774.26001076563,1.3800000238525802,215.9,136.947890313678,2533.7929511999996,19.07
54,2833.7259999999997,14.8470684622437,19732.0007315855,15.6000006389626,4.6899999672,99.18,2774.26001076563,1.3800000238525802,215.9,136.947890313678,2533.7929511999996,19.07
55,2833.8379999999997,14.8470684622437,19732.0007315855,15.6000006389626,4.6899999672,99.18,2774.26001076563,1.3800000238525802,215.9,136.947890313678,2533.9237104000003,19.07
56,2833.8779999999997,14.8470684622437,19732.0007315855,15.6000006389626,4.6899999672,99.18,2774.26001076563,1.3800000238525802,215.9,136.947890313678,2533.9237104000003,19.07
57,2834.03,14.8470684622437,19732.0007315855,15.6000006389626,4.6899999672,99.18,2774.26001076563,1.3800000238525802,215.9,136.947890313678,2534.0544695999997,19.07
58,2834.143,14.8470684622437,19732.0007315855,15.6000006389626,4.6899999672,99.18,2774.26001076563,1.3800000238525802,215.9,136.947890313678,2534.1852288000005,19.07
59,2834.183,14.8470684622437,19732.0007315855,15.6000006389626,4.6899999672,99.18,2774.26001076563,1.3800000238525802,215.9,136.947890313678,2534.1852288000005,19.07
60,2834.296,14.8470684622437,19732.0007315855,15.6000006389626,4.6899999672,99.18,2774.26001076563,1.3800000238525802,215.9,136.947890313678,2534.315988,19.07
61,2834.335,14.8470684622437,19732.0007315855,15.6000006389626,4.6899999672,99.18,2774.26001076563,1.3800000238525802,215.9,136.947890313678,2534.315988,19.07
62,2834.448,14.8470684622437,19732.0007315855,15.6000006389626,4.6899999672,99.18,2774.26001076563,1.3800000238525802,215.9,136.947890313678,2534.4467472,19.07
63,2834.488,14.8470684622437,19732.0007315855,15.6000006389626,4.6899999672,99.18,2774.26001076563,1.3800000238525802,215.9,136.947890313678,2534.4467472,19.07
64,2834.6,14.8470684622437,19732.0007315855,15.6000006389626,4.6899999672,99.18,2774.26001076563,1.3800000238525802,215.9,136.947890313678,2534.5775064,19.07
65,2834.64,14.8470684622437,19732.0007315855,15.6000006389626,4.6899999672,99.18,2774.26001076563,1.3800000238525802,215.9,136.947890313678,2534.5775064,19.07
66,2834.792,14.8470684622437,19732.0007315855,15.6000006389626,4.6899999672,99.18,2774.26001076563,1.3800000238525802,215.9,136.947890313678,2534.7082656,19.07
67,2834.905,14.8470684622437,19732.0007315855,15.6000006389626,4.6899999672,99.18,2774.26001076563,1.3800000238525802,215.9,136.947890313678,2534.8390248000005,19.07
68,2834.945,14.8470684622437,19732.0007315855,15.6000006389626,4.6899999672,99.18,2774.26001076563,1.3800000238525802,215.9,136.947890313678,2534.8390248000005,19.07
69,2835.058,14.8470684622437,19732.0007315855,15.6000006389626,4.6899999672,99.18,2774.26001076563,1.3800000238525802,215.9,136.947890313678,2534.9700888,19.07
70,2835.21,14.8470684622437,19732.0007315855,15.6000006389626,4.6899999672,99.18,2774.26001076563,1.3800000238525802,215.9,136.947890313678,2535.100848,19.07
71,2835.25,14.8470684622437,19732.0007315855,15.6000006389626,4.6899999672,99.18,2774.26001076563,1.3800000238525802,215.9,136.947890313678,2535.100848,19.07
72,2835.362,14.8470684622437,19732.0007315855,15.6000006389626,4.6899999672,99.18,2774.26001076563,1.3800000238525802,215.9,136.947890313678,2535.2316072,19.07
73,2835.515,14.8470684622437,19732.0007315855,15.6000006389626,4.6899999672,99.18,2774.26001076563,1.3800000238525802,215.9,136.947890313678,2535.3623664,19.07
74,2835.554,14.8470684622437,19732.0007315855,15.6000006389626,4.6899999672,99.18,2774.26001076563,1.3800000238525802,215.9,136.947890313678,2535.3623664,19.07
75,2835.7070000000003,14.8470684622437,19732.0007315855,15.6000006389626,4.6899999672,99.18,2774.26001076563,1.3800000238525802,215.9,136.947890313678,2535.4931255999995,19.07
76,2835.82,14.8470684622437,19732.0007315855,15.6000006389626,4.6899999672,99.18,2774.26001076563,1.3800000238525802,215.9,136.947890313678,2535.6238848000003,19.07
77,2835.8590000000004,14.8470684622437,19732.0007315855,15.6000006389626,4.6899999672,99.18,2774.26001076563,1.3800000238525802,215.9,136.947890313678,2535.6238848000003,19.07
78,2835.972,14.8470684622437,19732.0007315855,15.6000006389626,4.6899999672,99.18,2774.26001076563,1.3800000238525802,215.9,136.947890313678,2535.754644,19.07
79,2836.012,14.8470684622437,19732.0007315855,15.6000006389626,4.6899999672,99.18,2774.26001076563,1.3800000238525802,215.9,136.947890313678,2535.754644,19.07
80,2836.1240000000003,14.8470684622437,19732.0007315855,15.6000006389626,4.6899999672,99.18,2774.26001076563,1.3800000238525802,215.9,136.947890313678,2535.8854032,19.07
81,2836.164,14.8470684622437,19732.0007315855,15.6000006389626,4.6899999672,99.18,2774.26001076563,1.3800000238525802,215.9,136.947890313678,2535.8854032,19.07
82,2836.316,14.8470684622437,19732.0007315855,15.6000006389626,4.6899999672,99.18,2774.26001076563,1.3800000238525802,215.9,136.947890313678,2536.0161624,19.07
83,2836.429,14.8470684622437,19732.0007315855,15.6000006389626,4.6899999672,99.18,2774.26001076563,1.3800000238525802,215.9,136.947890313678,2536.1469216,19.07
84,2836.469,14.8470684622437,19732.0007315855,15.6000006389626,4.6899999672,99.18,2774.26001076563,1.3800000238525802,215.9,136.947890313678,2536.1469216,19.07
85,2836.5820000000003,14.8470684622437,19732.0007315855,15.6000006389626,4.6899999672,99.18,2774.26001076563,1.3800000238525802,215.9,136.947890313678,2536.2779855999997,19.07
86,2836.6209999999996,14.8470684622437,19732.0007315855,15.6000006389626,4.6899999672,99.18,2774.26001076563,1.3800000238525802,215.9,136.947890313678,2536.2779855999997,19.07
87,2836.7340000000004,14.8470684622437,19732.0007315855,15.6000006389626,4.6899999672,99.18,2774.26001076563,1.3800000238525802,215.9,136.947890313678,2536.4087448000005,19.07
88,2836.7740000000003,14.8470684622437,19732.0007315855,15.6000006389626,4.6899999672,99.18,2774.26001076563,1.3800000238525802,215.9,136.947890313678,2536.4087448000005,19.07
89,2836.926,14.8470684622437,19732.0007315855,15.6000006389626,4.6899999672,99.18,2774.26001076563,1.3800000238525802,215.9,136.947890313678,2536.539504,19.07
90,2837.039,14.8470684622437,19732.0007315855,15.6000006389626,4.6899999672,99.18,2774.26001076563,1.3800000238525802,215.9,136.947890313678,2536.6702632,19.07
91,2837.078,14.8470684622437,19732.0007315855,15.6000006389626,4.6899999672,99.18,2774.26001076563,1.3800000238525802,215.9,136.947890313678,2536.6702632,19.07
92,2837.191,14.8470684622437,19732.0007315855,15.6000006389626,4.6899999672,99.18,2774.26001076563,1.3800000238525802,215.9,136.947890313678,2536.8010224,19.07
93,2837.2309999999998,14.8470684622437,19732.0007315855,15.6000006389626,4.6899999672,99.18,2774.26001076563,1.3800000238525802,215.9,136.947890313678,2536.8010224,19.07
94,2837.344,14.8470684622437,19732.0007315855,15.6000006389626,4.6899999672,99.18,2774.26001076563,1.3800000238525802,215.9,136.947890313678,2536.9317816,19.07
95,2837.4959999999996,14.8470684622437,19732.0007315855,15.6000006389626,4.6899999672,99.18,2774.26001076563,1.3800000238525802,215.9,136.947890313678,2537.0625408000005,19.07
96,2837.5359999999996,14.8470684622437,19732.0007315855,15.6000006389626,4.6899999672,99.18,2774.26001076563,1.3800000238525802,215.9,136.947890313678,2537.0625408000005,19.07
97,2837.6479999999997,14.8470684622437,19732.0007315855,15.6000006389626,4.6899999672,99.18,2774.26001076563,1.3800000238525802,215.9,136.947890313678,2537.1933,19.07
98,2837.688,14.8470684622437,19732.0007315855,15.6000006389626,4.6899999672,99.18,2774.26001076563,1.3800000238525802,215.9,136.947890313678,2537.1933,19.07
99,2837.84,14.8470684622437,19732.0007315855,15.6000006389626,4.6899999672,99.18,2774.26001076563,1.3800000238525802,215.9,136.947890313678,2537.3240591999997,19.07
100,2837.953,14.8470684622437,19732.0007315855,15.6000006389626,4.6899999672,99.18,2774.26001076563,1.3800000238525802,215.9,136.947890313678,2537.4551232,19.07
101,2837.993,14.8470684622437,19732.0007315855,15.6000006389626,4.6899999672,99.18,2774.26001076563,1.3800000238525802,215.9,136.947890313678,2537.4551232,19.07
102,2838.1059999999998,14.8470684622437,19732.0007315855,15.6000006389626,4.6899999672,99.18,2774.26001076563,1.3800000238525802,215.9,136.947890313678,2537.5858824,19.07
103,2838.145,14.8470684622437,19732.0007315855,15.6000006389626,4.6899999672,99.18,2774.26001076563,1.3800000238525802,215.9,136.947890313678,2537.5858824,19.07
104,2838.258,14.8470684622437,19732.0007315855,15.6000006389626,4.6899999672,99.18,2774.26001076563,1.3800000238525802,215.9,136.947890313678,2537.7166415999995,19.07
105,2838.298,14.8470684622437,19732.0007315855,15.6000006389626,4.6899999672,99.18,2774.26001076563,1.3800000238525802,215.9,136.947890313678,2537.7166415999995,19.07
106,2838.563,14.8470684622437,19732.0007315855,15.6000006389626,4.6899999672,99.18,2774.26001076563,1.3800000238525802,215.9,136.947890313678,2537.97816,19.07
107,2838.6020000000003,14.8470684622437,19732.0007315855,15.6000006389626,4.6899999672,99.18,2774.26001076563,1.3800000238525802,215.9,136.947890313678,2537.97816,19.07
108,2838.715,14.8470684622437,19732.0007315855,15.6000006389626,4.6899999672,99.18,2774.26001076563,1.3800000238525802,215.9,136.947890313678,2538.1089192,19.07
109,2838.755,14.8470684622437,19732.0007315855,15.6000006389626,4.6899999672,99.18,2774.26001076563,1.3800000238525802,215.9,136.947890313678,2538.1089192,19.07
110,2838.868,14.8470684622437,19732.0007315855,15.6000006389626,4.6899999672,99.18,2774.26001076563,1.3800000238525802,215.9,136.947890313678,2538.2396784000002,19.07
111,2838.907,14.8470684622437,19732.0007315855,15.6000006389626,4.6899999672,99.18,2774.26001076563,1.3800000238525802,215.9,136.947890313678,2538.2396784000002,19.07
112,2839.02,14.8470684622437,19732.0007315855,15.6000006389626,4.6899999672,99.18,2774.26001076563,1.3800000238525802,215.9,136.947890313678,2538.3704375999996,19.07
113,2839.06,14.8470684622437,19732.0007315855,15.6000006389626,4.6899999672,99.18,2774.26001076563,1.3800000238525802,215.9,136.947890313678,2538.3704375999996,19.07
114,2839.172,14.8470684622437,19732.0007315855,15.6000006389626,4.6899999672,99.18,2774.26001076563,1.3800000238525802,215.9,136.947890313678,2538.5011968000003,19.07
115,2839.325,14.8470684622437,19732.0007315855,15.6000006389626,4.6899999672,99.18,2774.26001076563,1.3800000238525802,215.9,136.947890313678,2538.6322608000005,19.07
116,2839.4770000000003,14.8470684622437,19732.0007315855,15.6000006389626,4.6899999672,99.18,2774.26001076563,1.3800000238525802,215.9,136.947890313678,2538.76302,19.07
117,2839.5170000000003,14.8470684622437,19732.0007315855,15.6000006389626,4.6899999672,99.18,2774.26001076563,1.3800000238525802,215.9,136.947890313678,2538.76302,19.07
118,2839.6690000000003,14.8470684622437,19732.0007315855,15.6000006389626,4.6899999672,99.18,2774.26001076563,1.3800000238525802,215.9,136.947890313678,2538.8937792,19.07
